"Frequency / Hz","Vm2:Measured voltage","Vm2:Measured voltage"
100,20.810084386803066,-265.92795491803491
200,14.863498266394107,-261.9105014750217
300,11.46224517241061,-257.98864353422664
400,9.1267769716587068,-254.20268547689193
500,7.3898180838178344,-250.58486529656784
600,6.0400105209711228,-247.15865056157907
700,4.9619412846266613,-243.93890502190692
800,4.0846443494568421,-240.93275954032333
900,3.3608209322096294,-238.14089855916481
1000,2.7571162527672195,-235.55899428935231
1100,2.2490460998906761,-233.17909040324392
1200,1.8181109446647823,-230.9908161706814
1300,1.4500337577625977,-228.98237915759597
1400,1.1336191103835898,-227.14133091766607
1500,0.85997851917769386,-225.45512746165323
1600,0.62198417071718148,-223.91151813383146
1700,0.41387212636066018,-222.49879908647398
1800,0.23094744712756851,-221.20596461263261
1900,0.069361143032821704,-220.02278438037064
2000,-0.074060908989096341,-218.9398288915207
2100,-0.20195064398272533,-217.94846023856749
2200,-0.31650165415673859,-217.040800721333
2300,-0.41955109681179276,-216.20968835821421
2400,-0.5126447386604347,-215.44862562451198
2500,-0.59708892335881991,-214.75172564725702
2600,-0.6739923287904066,-214.11365870323027
2700,-0.74429969127969842,-213.52960076215885
2800,-0.80881918784602835,-212.99518508804096
2900,-0.86824477125375232,-212.50645743588598
3000,-0.92317448074569763,-212.05983502701534
3100,-0.97412551928087943,-211.65206926047617
3200,-1.0215467302172196,-211.28021200590663
3300,-1.0658289638677401,-210.94158521084029
3400,-1.1073137301106173,-210.63375355615483
3500,-1.1463004471720419,-210.35449983897749
3600,-1.1830525342749287,-210.10180279429053
3700,-1.217802547330521,-209.87381707774301
3800,-1.2507565107143204,-209.66885517542116
3900,-1.2820975735032025,-209.48537100942161
4000,-1.3119890881383511,-209.32194508189346
4100,-1.3405771927582975,-209.17727103678101
4200,-1.3679929644832869,-209.05014353525706
4300,-1.3943542004602008,-208.93944741237513
4400,-1.4197668784863828,-208.84414809370074
4500,-1.4443263456805797,-208.76328327555072
4600,-1.4681182833764097,-208.69595588229359
4700,-1.4912194984086178,-208.64132829954704
4800,-1.5136985905943543,-208.59861785593105
4900,-1.5356165487518545,-208.56709348072863
5000,-1.5570273246140984,-208.54607339389401
5100,-1.5779784316283969,-208.53492361536811
5200,-1.5985116013028899,-208.53305701582431
5300,-1.6186635248251757,-208.53993253279776
5400,-1.6384666797194767,-208.55505418886955
5500,-1.657950228104341,-208.57796948492415
5600,-1.6771409435890781,-208.60826685514374
5700,-1.6960641099931619,-208.64557191025651
5800,-1.7147443106071205,-208.68954241968387
5900,-1.7332060286644766,-208.73986215379261
6000,-1.7514739800546448,-208.79623396213327
6100,-1.7695731227275653,-208.8583726839021
6200,-1.7875283235030204,-208.92599865551114
6300,-1.8053637094085895,-208.99883267564942
6400,-1.8231017872286306,-209.07659320986758
6500,-1.8407624649967493,-209.15899642697741
6600,-1.85836215200359,-209.24575927722785
6700,-1.8759131253415502,-209.33660533832429
6800,-1.8934233371646196,-209.43127261063486
6900,-1.9108967808360613,-209.52952194696391
7000,-1.9283344456135989,-209.63114445477549
7100,-1.9457357753033777,-209.73596614230823
7200,-1.9631004278449138,-209.84384835116452
7300,-1.9804300343602053,-209.95468316688661
7400,-1.9977296035779974,-210.06838393803102
7500,-2.0150082362093613,-210.18487214740691
7600,-2.0322789119490685,-210.30406290210303
7700,-2.0495572848002084,-210.42585199571172
7800,-2.0668596456116655,-210.55010761358878
7900,-2.0842004310608435,-210.67666911514493
8000,-2.1015898304529008,-210.80535398859314
8100,-2.1190320974244674,-210.93597217871468
8200,-2.13652508660424,-211.06834501692373
8300,-2.1540612873868161,-211.20232433798432
8400,-2.1716302699325021,-211.33780670672647
8500,-2.1892220559381506,-211.4747382520535
8600,-2.2068305978909057,-211.6131076286714
8700,-2.2244564050404643,-211.75292763835574
8800,-2.2421074669188439,-211.89420946300189
8900,-2.2597980159210413,-212.03693620115263
9000,-2.2775452666905305,-212.1810435289018
9100,-2.295364916122463,-212.32641415140955
9200,-2.3132666847926933,-212.47288921179822
9300,-2.3312513348730244,-212.62029477469662
9400,-2.3493102976429374,-212.76847627198012
9500,-2.367428310817651,-212.91733021476225
9600,-2.3855884832542018,-213.06682205493593
9700,-2.4037782795959135,-213.21698253971547
9800,-2.4219944018831625,-213.36788162745523
9900,-2.4402446963556477,-213.51958710716136
10000,-2.4585460938477484,-213.67212161484852
11000,-2.6453762458400973,-215.22215057644121
12000,-2.8380416027312783,-216.79380054328115
13000,-3.0361841478141467,-218.36146751702984
14000,-3.2390510240272641,-219.90638325404481
15000,-3.4456308534061959,-221.41850824740342
16000,-3.6556159170485119,-222.8890059581658
17000,-3.867750736158027,-224.31322927157805
18000,-4.0816346600019751,-225.686648237832
19000,-4.2965976054716135,-227.00907694891072
20000,-4.5119521385511838,-228.27973398937655
21000,-4.7271783042667881,-229.49862167403182
22000,-4.9418215648455552,-230.66675555019407
23000,-5.1555472108933404,-231.78574967181927
24000,-5.3680997435514914,-232.85628896883924
25000,-5.5789142253828805,-233.88009569899907
26000,-5.7880600888597264,-234.86042918834531
27000,-5.9950347547680423,-235.79760611366254
28000,-6.199963122439252,-236.69399254779836
29000,-6.4025763180018567,-237.55222571414987
30000,-6.6027343058991423,-238.37365151702119
31000,-6.8003788223493782,-239.15993200721584
32000,-6.9954330936573426,-239.91292288915815
33000,-7.1878573660808023,-240.63477802013472
34000,-7.3777587753107907,-241.32692118610493
35000,-7.564948813445131,-241.9897306840829
36000,-7.7494891021198145,-242.62686118597057
37000,-7.9313404709490074,-243.23742901955674
38000,-8.1106654986292313,-243.82422759635989
39000,-8.2873268958847142,-244.38842858758551
40000,-8.4613775420241808,-244.93071362408438
41000,-8.6328789878534202,-245.45217674869644
42000,-8.8018453940352757,-245.95386107616469
43000,-8.9682720165441161,-246.43709017751519
44000,-9.1323122271031636,-246.9032212464532
45000,-9.2939961282967243,-247.35158369152873
46000,-9.4532042630008313,-247.78482888249602
47000,-9.6101642342575495,-248.20192479799732
48000,-9.7648876148257351,-248.60527757862749
49000,-9.9173125628726932,-248.99487901977858
50000,-10.067550107243948,-249.37113452328751
51000,-10.215669232112859,-249.73477421897599
52000,-10.361700184173326,-250.08629188779258
53000,-10.505624226430124,-250.4263118966627
54000,-10.647529316951461,-250.75613882792092
55000,-10.787596624335523,-251.0750625533546
56000,-10.925575441906201,-251.3842419986598
57000,-11.061815492968654,-251.68351109936378
58000,-11.196176314577409,-251.97440328233404
59000,-11.328683557978342,-252.25634898333152
60000,-11.459449488112035,-252.5298012383289
61000,-11.58852017594635,-252.79529471685902
62000,-11.715930524373181,-253.05303596201065
63000,-11.841662034670545,-253.30314109506335
64000,-11.965710696198936,-253.54669084170473
65000,-12.088329244701297,-253.78361158685959
66000,-12.209261955478352,-254.01351608672525
67000,-12.328834592873605,-254.23744465163657
68000,-12.446835909580951,-254.45576681181723
69000,-12.563375407238087,-254.66791549173834
70000,-12.678532242861145,-254.87446807836488
71000,-12.792325131684706,-255.07580561955376
72000,-12.9047927819033,-255.27201801617889
73000,-13.015939029330909,-255.46291681683005
74000,-13.125687909423004,-255.64912950830325
75000,-13.234268755286859,-255.83142736868001
76000,-13.341542667869486,-256.00829649644498
77000,-13.447690514021604,-256.18168018565109
78000,-13.552535325574528,-256.35084810562478
79000,-13.656235515670973,-256.51563244465706
80000,-13.758819351887864,-256.67664244622176
81000,-13.860285058639551,-256.83409753532436
82000,-13.960672423799734,-256.98807465500988
83000,-14.060018586663682,-257.13829736957263
84000,-14.158222056469747,-257.28481566011868
85000,-14.255407369251024,-257.42901924548062
86000,-14.351618831844579,-257.56903267633226
87000,-14.446834157842282,-257.70698195528297
88000,-14.540994158894659,-257.84146500316763
89000,-14.634251472489559,-257.97286428711379
90000,-14.726584528226478,-258.10165915112066
91000,-14.817983283151801,-258.22790602221568
92000,-14.908483056547876,-258.35171807183025
93000,-14.998148950179583,-258.47292163126338
94000,-15.086906059258688,-258.59105239544863
95000,-15.17473539083084,-258.70760923928719
96000,-15.261852583101856,-258.82119020967548
97000,-15.34805458565568,-258.93329962331882
98000,-15.43343090691428,-259.04250406047117
99000,-15.51807565857642,-259.14962732665219
100000,-15.601935788963521,-259.25488118044041
