"Frequency / Hz","Vm2:Measured voltage","Vm2:Measured voltage"
100,15.650437724950919,-268.81055457390892
200,9.639151783723376,-267.62626186950882
300,6.1327964737083915,-266.44658311104035
400,3.6555731424996933,-265.27391476722846
500,1.744903265711174,-264.11052019087964
600,0.19465849224752832,-262.95856837969563
700,-1.1052014206549028,-261.82012492039939
800,-2.2204454446670008,-260.69713884639862
900,-3.1935789153351779,-259.59143041338018
1000,-4.053704377940023,-258.50468095346037
1100,-4.8216561064941805,-257.43842511344212
1200,-5.5128898159868767,-256.39404548861211
1300,-6.139210639664463,-255.37276973302141
1400,-6.7098579758963659,-254.37566985429658
1500,-7.2322143520934272,-253.40366364489807
1600,-7.7122843772625957,-252.45751793598095
1700,-8.1550277020707824,-251.53785345842883
1800,-8.5645962298401201,-250.64515105971356
1900,-8.9445067774891669,-249.77975899989929
2000,-9.2977691595083698,-248.9419010802028
2100,-9.626982819259549,-248.1316853955359
2200,-9.9344108590884872,-247.34911346687215
2300,-10.22203755014905,-246.59408958213453
2400,-10.491613585716426,-245.86643020743639
2500,-10.744692115490011,-245.16587328462577
2600,-10.982657764358393,-244.4920873505244
2700,-11.206750240974262,-243.8446803681008
2800,-11.418083745481651,-243.22320819638932
2900,-11.617663069021948,-242.6271826477911
3000,-11.806397077221398,-242.05607908982705
3100,-11.985110097982112,-241.50934353811641
3200,-12.15455162622886,-240.98639921978645
3300,-12.31540465783257,-240.4866525510937
3400,-12.468292904905345,-240.00949851908047
3500,-12.613787085568637,-239.5543254080464
3600,-12.752410441536124,-239.12051884425244
3700,-12.884643604886698,-238.70746512781187
3800,-13.01092890215666,-238.31455384414923
3900,-13.131674170323024,-237.94117973163958
4000,-13.247256134879152,-237.58674384070997
4100,-13.358023389507455,-237.25065404596279
4200,-13.464299007031018,-236.93232498692072
4300,-13.566382804626933,-236.63117758541165
4400,-13.664553284344642,-236.34663831388127
4500,-13.759069271457829,-236.07813842812641
4600,-13.850171278057124,-235.82511340575564
4700,-13.938082628047058,-235.58700283108902
4800,-14.023010387174084,-235.36325095668627
4900,-14.105146154894499,-235.15330811399571
5000,-14.184666780598596,-234.95663306103168
5100,-14.261735075541278,-234.77269623956806
5200,-14.336500584835928,-234.60098378499899
5300,-14.409100485366068,-234.44100194769038
5400,-14.479660647233647,-234.29228149314878
5500,-14.548296879547753,-234.15438148001562
5600,-14.615116339505539,-234.02689182501882
5700,-14.680219053389488,-233.90943403718558
5800,-14.743699450456711,-233.80165969410024
5900,-14.805647787922709,-233.70324644020371
6000,-14.866151322627532,-233.61389164241632
6100,-14.925295089869747,-233.533304228882
6200,-14.983162179726007,-233.46119563261828
6300,-15.039833454676469,-233.39727110666021
6400,-15.095386733342636,-233.34122283884912
6500,-15.149895555360835,-233.29272627075807
6600,-15.203427737909273,-233.25144070575115
6700,-15.256044002900598,-233.2170147076925
6800,-15.307796991348617,-233.18909597988366
6900,-15.358730958433974,-233.16734450028798
7000,-15.408882358566684,-233.15144681209836
7100,-15.458281382389252,-233.14112877003848
7200,-15.506954318487921,-233.13616387775511
7300,-15.554926411782535,-233.13637479502552
7400,-15.602224722540921,-233.14162665077387
7500,-15.648880403030567,-233.15181240197444
7600,-15.694929840062066,-233.16683232309123
7700,-15.740414281615786,-233.18657142252488
7800,-15.785377863963021,-233.21087970579885
7900,-15.829864325403054,-233.23956029328488
8000,-15.873913066477312,-233.27236925642006
8100,-15.91755548008152,-233.30902864507459
8200,-15.960812548889638,-233.34925101817143
8300,-16.003694518267572,-233.39277044738964
8400,-16.046203015638081,-233.43937248675968
8500,-16.088335360841114,-233.48891472850443
8600,-16.130090152559035,-233.54133102809004
8700,-16.17147271343017,-233.59661615441843
8800,-16.212498809892228,-233.65479296362588
8900,-16.253195355536334,-233.71586975839756
9000,-16.293597554348324,-233.77979959778935
9100,-16.333742980291568,-233.84645435094299
9200,-16.373664139239743,-233.91562330409667
9300,-16.413381762102738,-233.9870394561126
9400,-16.452901134712182,-234.06042782398248
9500,-16.492213042869508,-234.13556186178306
9600,-16.531299520450251,-234.21230946266337
9700,-16.570142913646567,-234.29065128204877
9800,-16.608735388813308,-234.37066185826302
9900,-16.647085478327803,-234.45245647012109
10000,-16.685218941726166,-234.53611988034282
11000,-17.058488687686605,-235.44600890546067
12000,-17.418884388639317,-236.44462268750218
13000,-17.769604921486707,-237.48737370676093
14000,-18.112295541892852,-238.54125783648249
15000,-18.447274290384289,-239.58765294947511
16000,-18.775825271120453,-240.61314373547583
17000,-19.097296629886358,-241.60797958569935
18000,-19.412407728064412,-242.56542735642748
19000,-19.721059617915589,-243.48479913313943
20000,-20.023128983241982,-244.36396398478519
21000,-20.318671070369621,-245.20224597403342
22000,-20.607725997704641,-246.00051894806728
23000,-20.890447739759036,-246.7607211108953
24000,-21.167145367240799,-247.48299232875797
25000,-21.437421653111809,-248.16805132789219
26000,-21.701870993387136,-248.82121508519879
27000,-21.960184017875267,-249.44040357377435
28000,-22.213013507351924,-250.02907279553898
29000,-22.460209990980683,-250.58991236133207
30000,-22.701899973703263,-251.12350538507263
31000,-22.938295552006611,-251.63121032989181
32000,-23.169517997299991,-252.11467975279828
33000,-23.395702072854704,-252.57625357830295
34000,-23.617279094113815,-253.01727575577624
35000,-23.834136388715113,-253.43627430263797
36000,-24.04641876395338,-253.83888308261174
37000,-24.254319978826182,-254.22164765205119
38000,-24.458188789813491,-254.58887606774209
39000,-24.65785852041995,-254.94100323280094
40000,-24.853544092836128,-255.27802799968148
41000,-25.045437131625796,-255.60083632389632
42000,-25.233622539037196,-255.91015852009886
43000,-25.41811851837728,-256.20730856125533
44000,-25.599247753468152,-256.49409555411006
45000,-25.77718003535486,-256.76801819163904
46000,-25.951602265928226,-257.03299291236897
47000,-26.123079421512475,-257.28632932524954
48000,-26.291561945153678,-257.5318560093757
49000,-26.456963706446416,-257.768424385907
50000,-26.619521590851441,-257.99613195458915
51000,-26.779366790877749,-258.21568903940295
52000,-26.936558119338443,-258.42728988318964
53000,-27.091043786122313,-258.63134392677756
54000,-27.242956572386042,-258.82990830715818
55000,-27.392707535710837,-259.02112336723769
56000,-27.539735755451854,-259.20617416938126
57000,-27.684768053671579,-259.38469541863009
58000,-27.827450174274517,-259.55893045789287
59000,-27.967855753975996,-259.72714178972825
60000,-28.106192013798701,-259.88987772680258
61000,-28.242525570094511,-260.04776203277589
62000,-28.376912120193168,-260.20074767381107
63000,-28.509298924351256,-260.34853440044617
64000,-28.639624638710515,-260.4928736108663
65000,-28.768405033148682,-260.63357486063654
66000,-28.895111588903024,-260.7689704003086
67000,-29.02036835084159,-260.90133238708427
68000,-29.143709477280986,-261.03068789159033
69000,-29.265368945671888,-261.15565320339977
70000,-29.385475747710078,-261.27718841489809
71000,-29.504040476177423,-261.39576677270679
72000,-29.621125620947879,-261.51130126966444
73000,-29.736730155502904,-261.62308502100592
74000,-29.850657987698579,-261.73201238407154
75000,-29.963346761517386,-261.83974411620375
76000,-30.074541126176374,-261.94263345922792
77000,-30.184539078683436,-262.04473835687008
78000,-30.29297887473556,-262.14402510250636
79000,-30.40018151818764,-262.24012296745354
80000,-30.506171006706538,-262.33411212844362
81000,-30.610921327189921,-262.42622573640563
82000,-30.714498274446012,-262.51646455744253
83000,-30.816973038432902,-262.60409131714664
84000,-30.918115531241035,-262.68887846647141
85000,-31.018130389605609,-262.77372131823233
86000,-31.117152099745052,-262.85455435962587
87000,-31.215056181201657,-262.93564158936317
88000,-31.311744965773354,-263.01379393737125
89000,-31.407513779668079,-263.08984704956231
90000,-31.502289455971393,-263.16462627212599
91000,-31.596035517228405,-263.23808934673701
92000,-31.688809607779554,-263.31037506738375
93000,-31.780740335009593,-263.38105772304459
94000,-31.871669133191677,-263.44893544430454
95000,-31.961501964769973,-263.51701961553516
96000,-32.050718684423771,-263.58248406118616
97000,-32.138838198035693,-263.64814625239285
98000,-32.226074852802086,-263.71097292630054
99000,-32.312593206486099,-263.77269884239553
100000,-32.398263892853556,-263.83360424134742
